Time	Temp	Pres	iC5H11ONO	NO	H2CO	iC4H9	CH3	C3H6	iC4H8	H	DMH25	iC4H10	H2	iC5H12	CH4	C2H6	Kr
	0.00	706.4	130.5	5.9235E-08	0.0000E+00	0.0000E+00	0.0000E+00	0.0000E+00	0.0000E+00	0.0000E+00	0.0000E+00	0.0000E+00	0.0000E+00	0.0000E+00	0.0000E+00	0.0000E+00	0.0000E+00	2.9025E-06
	0.16	706.2	130.5	5.9173E-08	9.1523E-11	9.1523E-11	9.0948E-11	5.5896E-13	5.5914E-13	1.2757E-14	1.2597E-14	1.3383E-15	1.5697E-16	1.3434E-19	1.7786E-16	2.7213E-18	1.8684E-18	2.9040E-06
	0.33	706.0	130.5	5.9109E-08	1.8237E-10	1.8237E-10	1.8008E-10	2.2110E-12	2.2139E-12	5.1057E-14	4.9615E-14	1.0419E-14	1.3954E-15	2.0528E-18	2.7263E-15	4.1714E-17	5.6359E-17	2.9053E-06
	0.49	705.8	130.6	5.9044E-08	2.7254E-10	2.7254E-10	2.6741E-10	4.9158E-12	4.9303E-12	1.1496E-13	1.0953E-13	3.4615E-14	5.2049E-15	1.0124E-17	1.3512E-14	2.0674E-16	4.1517E-16	2.9065E-06
	0.66	705.6	130.6	5.8981E-08	3.6206E-10	3.6206E-10	3.5296E-10	8.6295E-12	8.6754E-12	2.0457E-13	1.9042E-13	8.0843E-14	1.3455E-14	3.1188E-17	4.1903E-14	6.4119E-16	1.7095E-15	2.9078E-06
	0.82	705.3	130.6	5.8919E-08	4.5092E-10	4.5092E-10	4.3674E-10	1.3305E-11	1.3417E-11	3.2001E-13	2.9000E-13	1.5559E-13	2.8324E-14	7.4133E-17	1.0044E-13	1.5370E-15	5.1046E-15	2.9091E-06
	0.99	705.1	130.6	5.8857E-08	5.3913E-10	5.3913E-10	5.1876E-10	1.8890E-11	1.9123E-11	4.6139E-13	4.0575E-13	2.6494E-13	5.2216E-14	1.4939E-16	2.0443E-13	3.1285E-15	1.2419E-14	2.9104E-06
	1.15	704.9	130.6	5.8793E-08	6.2668E-10	6.2668E-10	5.9900E-10	2.5331E-11	2.5760E-11	6.2886E-13	5.3497E-13	4.1454E-13	8.7667E-14	2.6842E-16	3.7155E-13	5.6862E-15	2.6222E-14	2.9116E-06
	1.31	704.7	130.7	5.8724E-08	7.1351E-10	7.1351E-10	6.7741E-10	3.2566E-11	3.3297E-11	8.2247E-13	6.7481E-13	6.0961E-13	1.3726E-13	4.4319E-16	6.2145E-13	9.5110E-15	4.9891E-14	2.9124E-06
	1.48	704.5	130.7	5.8672E-08	7.9993E-10	7.9993E-10	7.5428E-10	4.0549E-11	4.1716E-11	1.0427E-12	8.2278E-13	8.5530E-13	2.0364E-13	6.8606E-16	9.7577E-13	1.4934E-14	8.7668E-14	2.9141E-06
	1.64	704.3	130.7	5.8603E-08	8.8551E-10	8.8551E-10	8.2919E-10	4.9197E-11	5.0965E-11	1.2892E-12	9.7574E-13	1.1557E-12	2.8917E-13	1.0084E-15	1.4566E-12	2.2294E-14	1.4458E-13	2.9150E-06
	1.81	704.1	130.7	5.8535E-08	9.7045E-10	9.7045E-10	9.0235E-10	5.8454E-11	6.1026E-11	1.5623E-12	1.1313E-12	1.5151E-12	3.9621E-13	1.4215E-15	2.0875E-12	3.1952E-14	2.2651E-13	2.9158E-06
	1.97	703.9	130.8	5.8479E-08	1.0550E-09	1.0550E-09	9.7393E-10	6.8266E-11	7.1883E-11	1.8625E-12	1.2874E-12	1.9376E-12	5.2695E-13	1.9356E-15	2.8930E-12	4.4283E-14	3.4014E-13	2.9171E-06
	2.13	703.7	130.8	5.8422E-08	1.1389E-09	1.1389E-09	1.0438E-09	7.8558E-11	8.3499E-11	2.1896E-12	1.4416E-12	2.4265E-12	6.8320E-13	2.5594E-15	3.8968E-12	5.9651E-14	4.9274E-13	2.9185E-06
	2.30	703.5	130.8	5.8366E-08	1.2223E-09	1.2223E-09	1.1119E-09	8.9261E-11	9.5847E-11	2.5436E-12	1.5920E-12	2.9847E-12	8.6654E-13	3.3002E-15	5.1230E-12	7.8423E-14	6.9219E-13	2.9198E-06
	2.46	703.3	130.8	5.8310E-08	1.3051E-09	1.3051E-09	1.1783E-09	1.0031E-10	1.0890E-10	2.9247E-12	1.7371E-12	3.6152E-12	1.0782E-12	4.1641E-15	6.5949E-12	1.0096E-13	9.4679E-13	2.9211E-06
	2.62	703.1	130.8	5.8254E-08	1.3873E-09	1.3873E-09	1.2431E-09	1.1164E-10	1.2263E-10	3.3327E-12	1.8755E-12	4.3203E-12	1.3193E-12	5.1551E-15	8.3351E-12	1.2760E-13	1.2652E-12	2.9224E-06
	2.79	702.9	130.9	5.8198E-08	1.4690E-09	1.4690E-09	1.3061E-09	1.2318E-10	1.3701E-10	3.7678E-12	2.0061E-12	5.1021E-12	1.5904E-12	6.2761E-15	1.0365E-11	1.5869E-13	1.6561E-12	2.9237E-06
	2.95	702.7	130.9	5.8093E-08	1.5488E-09	1.5488E-09	1.3662E-09	1.3476E-10	1.5190E-10	4.2262E-12	2.1265E-12	5.9574E-12	1.8903E-12	7.5220E-15	1.2695E-11	1.9437E-13	2.1267E-12	2.9225E-06
	3.11	702.5	130.9	5.8062E-08	1.6301E-09	1.6301E-09	1.4264E-09	1.4659E-10	1.6757E-10	4.7166E-12	2.2404E-12	6.9000E-12	2.2231E-12	8.9080E-15	1.5369E-11	2.3531E-13	2.6897E-12	2.9249E-06
	3.28	702.3	130.9	5.8007E-08	1.7101E-09	1.7101E-09	1.4843E-09	1.5840E-10	1.8376E-10	5.2318E-12	2.3441E-12	7.9213E-12	2.5854E-12	1.0421E-14	1.8383E-11	2.8147E-13	3.3503E-12	2.9261E-06
	3.44	702.2	130.9	5.7951E-08	1.7897E-09	1.7897E-09	1.5406E-09	1.7018E-10	2.0051E-10	5.7735E-12	2.4383E-12	9.0249E-12	2.9779E-12	1.2060E-14	2.1759E-11	3.3317E-13	4.1174E-12	2.9273E-06
	3.60	702.0	131.0	5.7896E-08	1.8687E-09	1.8687E-09	1.5953E-09	1.8190E-10	2.1779E-10	6.3415E-12	2.5232E-12	1.0212E-11	3.4000E-12	1.3824E-14	2.5509E-11	3.9061E-13	4.9984E-12	2.9285E-06
	3.77	701.8	131.0	5.7840E-08	1.9473E-09	1.9473E-09	1.6483E-09	1.9349E-10	2.3559E-10	6.9354E-12	2.5989E-12	1.1482E-11	3.8510E-12	1.5707E-14	2.9646E-11	4.5398E-13	6.0002E-12	2.9296E-06
	3.93	701.6	131.0	5.7742E-08	2.0239E-09	2.0239E-09	1.6985E-09	2.0476E-10	2.5369E-10	7.5494E-12	2.6640E-12	1.2826E-11	4.3270E-12	1.7693E-14	3.4154E-11	5.2303E-13	7.1238E-12	2.9285E-06
	4.09	701.5	131.0	5.7707E-08	2.1022E-09	2.1022E-09	1.7490E-09	2.1606E-10	2.7253E-10	8.1968E-12	2.7236E-12	1.4268E-11	4.8348E-12	1.9806E-14	3.9101E-11	5.9880E-13	8.3872E-12	2.9307E-06
	4.26	701.3	131.0	5.7652E-08	2.1793E-09	2.1793E-09	1.7973E-09	2.2704E-10	2.9173E-10	8.8663E-12	2.7744E-12	1.5789E-11	5.3672E-12	2.2017E-14	4.4445E-11	6.8066E-13	9.7850E-12	2.9317E-06
	4.42	701.1	131.0	5.7596E-08	2.2559E-09	2.2559E-09	1.8441E-09	2.3775E-10	3.1137E-10	9.5604E-12	2.8180E-12	1.7393E-11	5.9249E-12	2.4327E-14	5.0202E-11	7.6886E-13	1.1323E-11	2.9328E-06
	4.58	701.0	131.1	5.7540E-08	2.3321E-09	2.3321E-09	1.8894E-09	2.4817E-10	3.3141E-10	1.0279E-11	2.8549E-12	1.9080E-11	6.5068E-12	2.6729E-14	5.6374E-11	8.6341E-13	1.3006E-11	2.9338E-06
	4.74	700.8	131.1	5.7484E-08	2.4078E-09	2.4078E-09	1.9332E-09	2.5826E-10	3.5186E-10	1.1020E-11	2.8857E-12	2.0849E-11	7.1118E-12	2.9218E-14	6.2961E-11	9.6432E-13	1.4833E-11	2.9347E-06
	4.91	700.7	131.1	5.7393E-08	2.4816E-09	2.4816E-09	1.9744E-09	2.6786E-10	3.7245E-10	1.1778E-11	2.9093E-12	2.2685E-11	7.7342E-12	3.1768E-14	6.9919E-11	1.0709E-12	1.6797E-11	2.9339E-06
	5.07	700.5	131.1	5.7354E-08	2.5572E-09	2.5572E-09	2.0160E-09	2.7735E-10	3.9373E-10	1.2568E-11	2.9305E-12	2.4623E-11	8.3843E-12	3.4422E-14	7.7350E-11	1.1848E-12	1.8923E-11	2.9357E-06
	5.23	700.4	131.1	5.7298E-08	2.6317E-09	2.6317E-09	2.0556E-09	2.8640E-10	4.1525E-10	1.3378E-11	2.9466E-12	2.6633E-11	9.0523E-12	3.7138E-14	8.5167E-11	1.3045E-12	2.1191E-11	2.9366E-06
	5.39	700.3	131.1	5.7242E-08	2.7058E-09	2.7058E-09	2.0939E-09	2.9508E-10	4.3710E-10	1.4208E-11	2.9588E-12	2.8721E-11	9.7394E-12	3.9918E-14	9.3385E-11	1.4305E-12	2.3604E-11	2.9374E-06
	5.56	700.1	131.1	5.7186E-08	2.7794E-09	2.7794E-09	2.1309E-09	3.0339E-10	4.5927E-10	1.5060E-11	2.9676E-12	3.0887E-11	1.0445E-11	4.2759E-14	1.0200E-10	1.5624E-12	2.6161E-11	2.9383E-06
	5.72	700.0	131.2	5.7138E-08	2.8531E-09	2.8531E-09	2.1669E-09	3.1137E-10	4.8181E-10	1.5935E-11	2.9740E-12	3.3134E-11	1.1169E-11	4.5664E-14	1.1102E-10	1.7006E-12	2.8864E-11	2.9396E-06
	5.88	699.8	131.2	5.7044E-08	2.9241E-09	2.9241E-09	2.2000E-09	3.1871E-10	5.0423E-10	1.6816E-11	2.9755E-12	3.5427E-11	1.1900E-11	4.8582E-14	1.2032E-10	1.8431E-12	3.1680E-11	2.9384E-06
	6.05	699.7	131.2	5.7018E-08	2.9982E-09	2.9982E-09	2.2345E-09	3.2607E-10	5.2753E-10	1.7736E-11	2.9783E-12	3.7835E-11	1.2661E-11	5.1605E-14	1.3013E-10	1.9935E-12	3.4669E-11	2.9408E-06
	6.21	699.6	131.2	5.6927E-08	3.0685E-09	3.0685E-09	2.2652E-09	3.3269E-10	5.5049E-10	1.8654E-11	2.9760E-12	4.0272E-11	1.3422E-11	5.4615E-14	1.4015E-10	2.1472E-12	3.7749E-11	2.9398E-06
	6.37	699.5	131.2	5.6898E-08	3.1418E-09	3.1418E-09	2.2973E-09	3.3930E-10	5.7428E-10	1.9611E-11	2.9753E-12	4.2823E-11	1.4212E-11	5.7724E-14	1.5068E-10	2.3085E-12	4.0997E-11	2.9420E-06
	6.53	699.4	131.2	5.6811E-08	3.2115E-09	3.2115E-09	2.3260E-09	3.4522E-10	5.9773E-10	2.0565E-11	2.9704E-12	4.5399E-11	1.5000E-11	6.0813E-14	1.6139E-10	2.4726E-12	4.4325E-11	2.9411E-06
	6.69	699.2	131.2	5.6778E-08	3.2839E-09	3.2839E-09	2.3558E-09	3.5113E-10	6.2198E-10	2.1555E-11	2.9673E-12	4.8085E-11	1.5816E-11	6.3996E-14	1.7258E-10	2.6441E-12	4.7814E-11	2.9431E-06
	6.86	699.1	131.2	5.6694E-08	3.3531E-09	3.3531E-09	2.3825E-09	3.5638E-10	6.4588E-10	2.2543E-11	2.9606E-12	5.0793E-11	1.6630E-11	6.7153E-14	1.8393E-10	2.8181E-12	5.1372E-11	2.9423E-06
	7.02	699.0	131.3	5.6659E-08	3.4248E-09	3.4248E-09	2.4102E-09	3.6163E-10	6.7054E-10	2.3565E-11	2.9558E-12	5.3609E-11	1.7469E-11	7.0400E-14	1.9574E-10	2.9992E-12	5.5083E-11	2.9441E-06
	7.18	698.9	131.3	5.6577E-08	3.4933E-09	3.4933E-09	2.4350E-09	3.6626E-10	6.9484E-10	2.4583E-11	2.9481E-12	5.6443E-11	1.8306E-11	7.3616E-14	2.0769E-10	3.1823E-12	5.8852E-11	2.9434E-06
	7.34	698.8	131.3	5.6539E-08	3.5643E-09	3.5643E-09	2.4608E-09	3.7088E-10	7.1986E-10	2.5635E-11	2.9422E-12	5.9382E-11	1.9167E-11	7.6917E-14	2.2008E-10	3.3722E-12	6.2764E-11	2.9451E-06
	7.51	698.7	131.3	5.6460E-08	3.6323E-09	3.6323E-09	2.4838E-09	3.7494E-10	7.4454E-10	2.6683E-11	2.9339E-12	6.2337E-11	2.0025E-11	8.0185E-14	2.3258E-10	3.5638E-12	6.6724E-11	2.9445E-06
	7.67	698.6	131.3	5.6420E-08	3.7026E-09	3.7026E-09	2.5078E-09	3.7899E-10	7.6989E-10	2.7762E-11	2.9274E-12	6.5393E-11	2.0906E-11	8.3533E-14	2.4550E-10	3.7619E-12	7.0818E-11	2.9460E-06
	7.83	698.5	131.3	5.6369E-08	3.7719E-09	3.7719E-09	2.5303E-09	3.8271E-10	7.9527E-10	2.8849E-11	2.9201E-12	6.8493E-11	2.1792E-11	8.6887E-14	2.5863E-10	3.9631E-12	7.4983E-11	2.9469E-06
	7.99	698.4	131.3	5.6285E-08	3.8386E-09	3.8386E-09	2.5506E-09	3.8595E-10	8.2032E-10	2.9932E-11	2.9111E-12	7.1606E-11	2.2675E-11	9.0209E-14	2.7184E-10	4.1656E-12	7.9181E-11	2.9460E-06
	8.15	698.3	131.3	5.6250E-08	3.9084E-09	3.9084E-09	2.5723E-09	3.8930E-10	8.4623E-10	3.1053E-11	2.9046E-12	7.4835E-11	2.3585E-11	9.3629E-14	2.8551E-10	4.3752E-12	8.3522E-11	2.9477E-06
	8.32	698.2	131.3	5.6168E-08	3.9746E-09	3.9746E-09	2.5911E-09	3.9209E-10	8.7156E-10	3.2159E-11	2.8957E-12	7.8054E-11	2.4485E-11	9.6988E-14	2.9916E-10	4.5845E-12	8.7863E-11	2.9470E-06
	8.48	698.1	131.3	5.6131E-08	4.0437E-09	4.0437E-09	2.6113E-09	3.9499E-10	8.9772E-10	3.3302E-11	2.8891E-12	8.1384E-11	2.5411E-11	1.0044E-13	3.1326E-10	4.8006E-12	9.2339E-11	2.9485E-06
	8.64	698.0	131.3	5.6051E-08	4.1095E-09	4.1095E-09	2.6287E-09	3.9738E-10	9.2333E-10	3.4430E-11	2.8804E-12	8.4702E-11	2.6326E-11	1.0383E-13	3.2731E-10	5.0161E-12	9.6806E-11	2.9479E-06
	8.80	697.9	131.3	5.6012E-08	4.1780E-09	4.1780E-09	2.6474E-09	3.9988E-10	9.4971E-10	3.5594E-11	2.8738E-12	8.8128E-11	2.7267E-11	1.0732E-13	3.4179E-10	5.2381E-12	1.0140E-10	2.9493E-06
	8.96	697.8	131.3	5.5934E-08	4.2434E-09	4.2434E-09	2.6636E-09	4.0192E-10	9.7555E-10	3.6743E-11	2.8654E-12	9.1539E-11	2.8197E-11	1.1074E-13	3.5622E-10	5.4592E-12	1.0598E-10	2.9487E-06
	9.13	697.7	131.4	5.5894E-08	4.3113E-09	4.3113E-09	2.6809E-09	4.0406E-10	1.0021E-09	3.7925E-11	2.8590E-12	9.5054E-11	2.9151E-11	1.1425E-13	3.7104E-10	5.6866E-12	1.1067E-10	2.9500E-06
	9.29	697.7	131.4	5.5818E-08	4.3762E-09	4.3762E-09	2.6959E-09	4.0579E-10	1.0282E-09	3.9093E-11	2.8509E-12	9.8553E-11	3.0094E-11	1.1769E-13	3.8580E-10	5.9128E-12	1.1534E-10	2.9495E-06
	9.45	697.6	131.4	5.5776E-08	4.4435E-09	4.4435E-09	2.7119E-09	4.0761E-10	1.0549E-09	4.0292E-11	2.8446E-12	1.0215E-10	3.1060E-11	1.2122E-13	4.0094E-10	6.1450E-12	1.2013E-10	2.9507E-06
	9.61	697.5	131.4	5.5702E-08	4.5080E-09	4.5080E-09	2.7258E-09	4.0906E-10	1.0812E-09	4.1477E-11	2.8368E-12	1.0573E-10	3.2015E-11	1.2470E-13	4.1600E-10	6.3758E-12	1.2488E-10	2.9503E-06
	9.77	697.4	131.4	5.5658E-08	4.5747E-09	4.5747E-09	2.7407E-09	4.1060E-10	1.1081E-09	4.2693E-11	2.8307E-12	1.0941E-10	3.2993E-11	1.2825E-13	4.3142E-10	6.6123E-12	1.2974E-10	2.9514E-06
	9.94	697.3	131.4	5.5586E-08	4.6388E-09	4.6388E-09	2.7536E-09	4.1181E-10	1.1345E-09	4.3894E-11	2.8232E-12	1.1307E-10	3.3959E-11	1.3174E-13	4.4675E-10	6.8473E-12	1.3456E-10	2.9510E-06
	10.10	697.3	131.4	5.5548E-08	4.7056E-09	4.7056E-09	2.7676E-09	4.1315E-10	1.1617E-09	4.5129E-11	2.8176E-12	1.1684E-10	3.4952E-11	1.3532E-13	4.6248E-10	7.0886E-12	1.3950E-10	2.9524E-06
	10.26	697.2	131.4	5.5470E-08	4.7687E-09	4.7687E-09	2.7792E-09	4.1410E-10	1.1881E-09	4.6338E-11	2.8102E-12	1.2056E-10	3.5924E-11	1.3882E-13	4.7799E-10	7.3265E-12	1.4437E-10	2.9517E-06
	10.42	697.1	131.4	5.5413E-08	4.8333E-09	4.8333E-09	2.7913E-09	4.1509E-10	1.2151E-09	4.7571E-11	2.8038E-12	1.2435E-10	3.6914E-11	1.4237E-13	4.9378E-10	7.5686E-12	1.4931E-10	2.9520E-06
	10.58	697.0	131.4	5.5374E-08	4.8994E-09	4.8994E-09	2.8039E-09	4.1613E-10	1.2425E-09	4.8826E-11	2.7985E-12	1.2822E-10	3.7921E-11	1.4597E-13	5.0986E-10	7.8151E-12	1.5433E-10	2.9534E-06
	10.74	697.0	131.4	5.5297E-08	4.9618E-09	4.9618E-09	2.8141E-09	4.1680E-10	1.2690E-09	5.0054E-11	2.7915E-12	1.3204E-10	3.8906E-11	1.4949E-13	5.2568E-10	8.0577E-12	1.5926E-10	2.9527E-06
	10.91	696.9	131.4	5.5240E-08	5.0258E-09	5.0258E-09	2.8248E-09	4.1752E-10	1.2961E-09	5.1305E-11	2.7855E-12	1.3593E-10	3.9909E-11	1.5306E-13	5.4176E-10	8.3044E-12	1.6426E-10	2.9530E-06
	11.07	696.8	131.4	5.5201E-08	5.0912E-09	5.0912E-09	2.8361E-09	4.1831E-10	1.3237E-09	5.2578E-11	2.7805E-12	1.3989E-10	4.0928E-11	1.5668E-13	5.5812E-10	8.5553E-12	1.6934E-10	2.9543E-06
	11.23	696.7	131.4	5.5125E-08	5.1530E-09	5.1530E-09	2.8450E-09	4.1876E-10	1.3504E-09	5.3821E-11	2.7738E-12	1.4379E-10	4.1925E-11	1.6021E-13	5.7420E-10	8.8019E-12	1.7432E-10	2.9536E-06
	11.39	696.7	131.4	5.5068E-08	5.2163E-09	5.2163E-09	2.8545E-09	4.1927E-10	1.3776E-09	5.5087E-11	2.7681E-12	1.4777E-10	4.2939E-11	1.6380E-13	5.9054E-10	9.0525E-12	1.7938E-10	2.9539E-06
	11.55	696.6	131.4	5.5028E-08	5.2810E-09	5.2810E-09	2.8646E-09	4.1986E-10	1.4053E-09	5.6376E-11	2.7634E-12	1.5182E-10	4.3970E-11	1.6744E-13	6.0714E-10	9.3071E-12	1.8450E-10	2.9551E-06
	11.71	696.5	131.5	5.4954E-08	5.3422E-09	5.3422E-09	2.8724E-09	4.2012E-10	1.4321E-09	5.7633E-11	2.7570E-12	1.5580E-10	4.4977E-11	1.7098E-13	6.2343E-10	9.5569E-12	1.8952E-10	2.9545E-06
	11.88	696.5	131.5	5.4897E-08	5.4049E-09	5.4049E-09	2.8808E-09	4.2046E-10	1.4595E-09	5.8912E-11	2.7516E-12	1.5986E-10	4.6000E-11	1.7458E-13	6.3998E-10	9.8107E-12	1.9460E-10	2.9548E-06
	12.04	696.4	131.5	5.4856E-08	5.4690E-09	5.4690E-09	2.8898E-09	4.2088E-10	1.4872E-09	6.0213E-11	2.7471E-12	1.6398E-10	4.7041E-11	1.7824E-13	6.5679E-10	1.0068E-11	1.9976E-10	2.9559E-06
	12.20	696.3	131.5	5.4783E-08	5.5296E-09	5.5296E-09	2.8966E-09	4.2099E-10	1.5142E-09	6.1482E-11	2.7411E-12	1.6803E-10	4.8056E-11	1.8179E-13	6.7325E-10	1.0321E-11	2.0480E-10	2.9553E-06
	12.36	696.3	131.5	5.4726E-08	5.5917E-09	5.5917E-09	2.9040E-09	4.2119E-10	1.5415E-09	6.2772E-11	2.7359E-12	1.7216E-10	4.9088E-11	1.8539E-13	6.8997E-10	1.0577E-11	2.0991E-10	2.9556E-06
	12.52	696.2	131.5	5.4686E-08	5.6552E-09	5.6552E-09	2.9119E-09	4.2147E-10	1.5694E-09	6.4085E-11	2.7316E-12	1.7635E-10	5.0137E-11	1.8906E-13	7.0694E-10	1.0838E-11	2.1508E-10	2.9567E-06
	12.68	696.1	131.5	5.4613E-08	5.7152E-09	5.7152E-09	2.9179E-09	4.2147E-10	1.5964E-09	6.5363E-11	2.7258E-12	1.8046E-10	5.1159E-11	1.9261E-13	7.2355E-10	1.1093E-11	2.2013E-10	2.9561E-06
	12.85	696.1	131.5	5.4557E-08	5.7767E-09	5.7767E-09	2.9243E-09	4.2156E-10	1.6238E-09	6.6663E-11	2.7209E-12	1.8465E-10	5.2199E-11	1.9623E-13	7.4041E-10	1.1351E-11	2.2525E-10	2.9564E-06
	13.01	696.0	131.5	5.4516E-08	5.8397E-09	5.8397E-09	2.9314E-09	4.2173E-10	1.6518E-09	6.7985E-11	2.7168E-12	1.8891E-10	5.3255E-11	1.9990E-13	7.5753E-10	1.1614E-11	2.3044E-10	2.9574E-06
	13.17	696.0	131.5	5.4444E-08	5.8992E-09	5.8992E-09	2.9365E-09	4.2163E-10	1.6788E-09	6.9271E-11	2.7113E-12	1.9307E-10	5.4283E-11	2.0346E-13	7.7425E-10	1.1870E-11	2.3550E-10	2.9568E-06
	13.33	695.9	131.5	5.4388E-08	5.9601E-09	5.9601E-09	2.9421E-09	4.2162E-10	1.7062E-09	7.0579E-11	2.7066E-12	1.9731E-10	5.5328E-11	2.0707E-13	7.9122E-10	1.2131E-11	2.4063E-10	2.9571E-06
	13.49	695.8	131.5	5.4347E-08	6.0225E-09	6.0225E-09	2.9483E-09	4.2171E-10	1.7342E-09	7.1909E-11	2.7027E-12	2.0162E-10	5.6390E-11	2.1075E-13	8.0845E-10	1.2395E-11	2.4582E-10	2.9581E-06
	13.65	695.8	131.5	5.4277E-08	6.0814E-09	6.0814E-09	2.9527E-09	4.2153E-10	1.7612E-09	7.3202E-11	2.6973E-12	2.0584E-10	5.7423E-11	2.1431E-13	8.2526E-10	1.2653E-11	2.5088E-10	2.9575E-06
	13.81	695.7	131.5	5.4221E-08	6.1418E-09	6.1418E-09	2.9576E-09	4.2145E-10	1.7887E-09	7.4516E-11	2.6928E-12	2.1012E-10	5.8473E-11	2.1792E-13	8.4232E-10	1.2914E-11	2.5600E-10	2.9578E-06
	13.98	695.7	131.5	5.4180E-08	6.2037E-09	6.2037E-09	2.9630E-09	4.2146E-10	1.8167E-09	7.5853E-11	2.6890E-12	2.1448E-10	5.9541E-11	2.2160E-13	8.5964E-10	1.3180E-11	2.6119E-10	2.9588E-06
	14.14	695.6	131.5	5.4110E-08	6.2621E-09	6.2621E-09	2.9667E-09	4.2122E-10	1.8437E-09	7.7151E-11	2.6839E-12	2.1874E-10	6.0577E-11	2.2515E-13	8.7652E-10	1.3439E-11	2.6624E-10	2.9582E-06
	14.30	695.5	131.5	5.4054E-08	6.3220E-09	6.3220E-09	2.9709E-09	4.2108E-10	1.8712E-09	7.8470E-11	2.6795E-12	2.2307E-10	6.1631E-11	2.2877E-13	8.9365E-10	1.3702E-11	2.7136E-10	2.9584E-06
	14.46	695.5	131.5	5.4013E-08	6.3833E-09	6.3833E-09	2.9757E-09	4.2103E-10	1.8991E-09	7.9812E-11	2.6759E-12	2.2747E-10	6.2703E-11	2.3244E-13	9.1104E-10	1.3969E-11	2.7654E-10	2.9594E-06
	14.62	695.4	131.5	5.3944E-08	6.4412E-09	6.4412E-09	2.9787E-09	4.2075E-10	1.9261E-09	8.1114E-11	2.6710E-12	2.3176E-10	6.3742E-11	2.3600E-13	9.2797E-10	1.4228E-11	2.8158E-10	2.9589E-06
	14.78	695.4	131.5	5.3889E-08	6.5005E-09	6.5005E-09	2.9823E-09	4.2056E-10	1.9536E-09	8.2437E-11	2.6668E-12	2.3612E-10	6.4799E-11	2.3961E-13	9.4515E-10	1.4492E-11	2.8669E-10	2.9591E-06
	14.94	695.3	131.5	5.3847E-08	6.5614E-09	6.5614E-09	2.9865E-09	4.2046E-10	1.9815E-09	8.3783E-11	2.6633E-12	2.4056E-10	6.5874E-11	2.4328E-13	9.6259E-10	1.4760E-11	2.9187E-10	2.9600E-06
	15.11	695.3	131.5	5.3779E-08	6.6187E-09	6.6187E-09	2.9889E-09	4.2013E-10	2.0085E-09	8.5088E-11	2.6585E-12	2.4488E-10	6.6916E-11	2.4683E-13	9.7956E-10	1.5020E-11	2.9689E-10	2.9595E-06
	15.27	695.2	131.5	5.3724E-08	6.6776E-09	6.6776E-09	2.9920E-09	4.1990E-10	2.0359E-09	8.6414E-11	2.6544E-12	2.4928E-10	6.7975E-11	2.5044E-13	9.9677E-10	1.5284E-11	3.0199E-10	2.9597E-06
	15.43	695.2	131.5	5.3682E-08	6.7380E-09	6.7380E-09	2.9955E-09	4.1976E-10	2.0639E-09	8.7763E-11	2.6510E-12	2.5375E-10	6.9052E-11	2.5411E-13	1.0142E-09	1.5552E-11	3.0715E-10	2.9606E-06
	15.59	695.1	131.6	5.3615E-08	6.7948E-09	6.7948E-09	2.9975E-09	4.1941E-10	2.0908E-09	8.9070E-11	2.6464E-12	2.5810E-10	7.0095E-11	2.5765E-13	1.0312E-09	1.5813E-11	3.1216E-10	2.9601E-06
	15.75	695.1	131.6	5.3560E-08	6.8532E-09	6.8532E-09	3.0000E-09	4.1914E-10	2.1182E-09	9.0398E-11	2.6425E-12	2.6252E-10	7.1156E-11	2.6125E-13	1.0485E-09	1.6077E-11	3.1724E-10	2.9603E-06
	15.91	695.0	131.6	5.3519E-08	6.9131E-09	6.9131E-09	3.0031E-09	4.1897E-10	2.1461E-09	9.1749E-11	2.6392E-12	2.6701E-10	7.2234E-11	2.6491E-13	1.0660E-09	1.6346E-11	3.2239E-10	2.9612E-06
	16.07	694.9	131.6	5.3452E-08	6.9695E-09	6.9695E-09	3.0045E-09	4.1859E-10	2.1729E-09	9.3056E-11	2.6347E-12	2.7138E-10	7.3278E-11	2.6845E-13	1.0830E-09	1.6606E-11	3.2737E-10	2.9606E-06
	16.23	694.9	131.6	5.3397E-08	7.0274E-09	7.0274E-09	3.0066E-09	4.1830E-10	2.2002E-09	9.4386E-11	2.6309E-12	2.7583E-10	7.4340E-11	2.7204E-13	1.1002E-09	1.6871E-11	3.3243E-10	2.9608E-06
	16.40	694.8	131.6	5.3356E-08	7.0868E-09	7.0868E-09	3.0092E-09	4.1810E-10	2.2281E-09	9.5738E-11	2.6277E-12	2.8034E-10	7.5420E-11	2.7569E-13	1.1177E-09	1.7140E-11	3.3757E-10	2.9617E-06
